Wavelength	n	k
0.190700	1.631000	0.778000
0.191300	1.617000	0.767600
0.191900	1.604000	0.757800
0.192500	1.590000	0.748600
0.193100	1.576000	0.739900
0.193700	1.561000	0.731700
0.194300	1.547000	0.724100
0.194900	1.532000	0.717000
0.195600	1.518000	0.710500
0.196200	1.503000	0.704500
0.196800	1.488000	0.699000
0.197400	1.473000	0.694000
0.198100	1.458000	0.689600
0.198700	1.443000	0.685700
0.199300	1.428000	0.682300
0.200000	1.412000	0.679500
0.200600	1.397000	0.677200
0.201300	1.381000	0.675400
0.201900	1.366000	0.674200
0.202600	1.351000	0.673500
0.203300	1.335000	0.673400
0.203900	1.320000	0.673900
0.204600	1.304000	0.674900
0.205300	1.289000	0.676500
0.206000	1.273000	0.678700
0.206600	1.258000	0.681400
0.207300	1.242000	0.684800
0.208000	1.227000	0.688800
0.208700	1.212000	0.693400
0.209400	1.197000	0.698600
0.210100	1.182000	0.704500
0.210900	1.168000	0.711000
0.211600	1.154000	0.718200
0.212300	1.140000	0.726000
0.213000	1.126000	0.734400
0.213800	1.112000	0.743500
0.214500	1.099000	0.753300
0.215300	1.087000	0.763700
0.216000	1.075000	0.774700
0.216800	1.063000	0.786300
0.217500	1.052000	0.798500
0.218300	1.042000	0.811200
0.219100	1.032000	0.824500
0.219800	1.023000	0.838300
0.220600	1.014000	0.852500
0.221400	1.007000	0.867200
0.222200	0.999700	0.882300
0.223000	0.993800	0.897600
0.223800	0.988600	0.913300
0.224600	0.984400	0.929100
0.225400	0.981200	0.945100
0.226300	0.978800	0.961200
0.227100	0.977500	0.977400
0.227900	0.977100	0.993400
0.228800	0.977600	1.009000
0.229600	0.979200	1.025000
0.230500	0.981700	1.041000
0.231300	0.985200	1.056000
0.232200	0.989600	1.071000
0.233100	0.995000	1.085000
0.233900	1.001000	1.098000
0.234800	1.008000	1.111000
0.235700	1.016000	1.124000
0.236600	1.025000	1.135000
0.237500	1.034000	1.146000
0.238400	1.044000	1.155000
0.239400	1.055000	1.164000
0.240300	1.066000	1.171000
0.241200	1.077000	1.177000
0.242200	1.089000	1.182000
0.243100	1.101000	1.186000
0.244100	1.112000	1.188000
0.245000	1.124000	1.190000
0.246000	1.135000	1.189000
0.247000	1.146000	1.188000
0.248000	1.157000	1.185000
0.249000	1.167000	1.181000
0.250000	1.176000	1.176000
0.251000	1.184000	1.170000
0.252000	1.190000	1.163000
0.253000	1.196000	1.155000
0.254100	1.201000	1.146000
0.255100	1.204000	1.137000
0.256200	1.205000	1.127000
0.257200	1.205000	1.117000
0.258300	1.204000	1.107000
0.259400	1.200000	1.097000
0.260500	1.196000	1.087000
0.261600	1.189000	1.078000
0.262700	1.181000	1.069000
0.263800	1.172000	1.061000
0.264900	1.161000	1.054000
0.266100	1.149000	1.048000
0.267200	1.135000	1.044000
0.268400	1.120000	1.041000
0.269500	1.104000	1.040000
0.270700	1.088000	1.041000
0.271900	1.070000	1.044000
0.273100	1.052000	1.050000
0.274300	1.034000	1.058000
0.275500	1.016000	1.069000
0.276800	0.999200	1.084000
0.278000	0.983400	1.102000
0.279200	0.969500	1.123000
0.280500	0.958400	1.148000
0.281800	0.951000	1.177000
0.283100	0.948400	1.208000
0.284400	0.951800	1.242000
0.285700	0.962600	1.278000
0.287000	0.982300	1.314000
0.288300	1.012000	1.347000
0.289700	1.053000	1.376000
0.291000	1.104000	1.395000
0.292400	1.164000	1.401000
0.293800	1.230000	1.389000
0.295200	1.293000	1.356000
0.296600	1.347000	1.303000
0.298000	1.384000	1.234000
0.299500	1.401000	1.158000
0.300900	1.397000	1.081000
0.302400	1.376000	1.009000
0.303900	1.341000	0.945100
0.305400	1.297000	0.891700
0.306900	1.246000	0.848400
0.308400	1.192000	0.814500
0.310000	1.135000	0.789300
0.311500	1.078000	0.771700
0.313100	1.021000	0.761000
0.314700	0.963800	0.756500
0.316300	0.907900	0.757600
0.317900	0.853200	0.764000
0.319500	0.800200	0.775200
0.321200	0.749200	0.790800
0.322900	0.700500	0.810500
0.324600	0.654400	0.833800
0.326300	0.611300	0.860300
0.328000	0.571300	0.889300
0.329700	0.534400	0.920500
0.331500	0.500700	0.953100
0.333300	0.470000	0.986900
0.335100	0.442100	1.021000
0.336900	0.416800	1.056000
0.338800	0.394000	1.091000
0.340600	0.373200	1.126000
0.342500	0.354400	1.161000
0.344400	0.337400	1.195000
0.346300	0.321800	1.229000
0.348300	0.307600	1.263000
0.350200	0.294600	1.296000
0.352200	0.282700	1.329000
0.354200	0.271700	1.362000
0.356300	0.261600	1.394000
0.358300	0.252300	1.426000
0.360400	0.243700	1.457000
0.362500	0.235700	1.488000
0.364700	0.228300	1.519000
0.366800	0.221400	1.550000
0.369000	0.215000	1.580000
0.371200	0.209000	1.610000
0.373400	0.203400	1.640000
0.375700	0.198100	1.670000
0.378000	0.193200	1.700000
0.380300	0.188700	1.729000
0.382700	0.184400	1.759000
0.385000	0.180300	1.788000
0.387500	0.176500	1.817000
0.389900	0.173000	1.846000
0.392400	0.169600	1.875000
0.394900	0.166500	1.904000
0.397400	0.163500	1.933000
0.400000	0.160800	1.962000
0.402500	0.158200	1.991000
0.405200	0.155700	2.020000
0.407800	0.153400	2.049000
0.410500	0.151300	2.078000
0.413300	0.149200	2.107000
0.416100	0.147300	2.137000
0.418900	0.145600	2.166000
0.421700	0.143900	2.195000
0.424600	0.142300	2.225000
0.427500	0.140900	2.255000
0.430500	0.139600	2.284000
0.433500	0.138300	2.314000
0.436600	0.137200	2.344000
0.439700	0.136100	2.375000
0.442800	0.135100	2.405000
0.446000	0.134300	2.436000
0.449200	0.133400	2.466000
0.452500	0.132700	2.497000
0.455800	0.132100	2.529000
0.459200	0.131500	2.560000
0.462600	0.131000	2.592000
0.466100	0.130600	2.624000
0.469600	0.130200	2.656000
0.473200	0.129900	2.688000
0.476900	0.129700	2.721000
0.480600	0.129600	2.754000
0.484300	0.129500	2.788000
0.488100	0.129500	2.821000
0.492000	0.129500	2.855000
0.495900	0.129600	2.890000
0.499900	0.129800	2.925000
0.504000	0.130000	2.960000
0.508100	0.130300	2.995000
0.512300	0.130700	3.031000
0.516600	0.131100	3.068000
0.520900	0.131600	3.104000
0.525400	0.132200	3.142000
0.529900	0.132800	3.179000
0.534400	0.133500	3.217000
0.539100	0.134200	3.256000
0.543800	0.135000	3.295000
0.548600	0.135900	3.335000
0.553500	0.136800	3.375000
0.558500	0.137800	3.416000
0.563600	0.138900	3.457000
0.568700	0.140100	3.499000
0.574000	0.141300	3.542000
0.579400	0.142600	3.585000
0.584800	0.143900	3.629000
0.590400	0.145400	3.673000
0.596100	0.146900	3.719000
0.601900	0.148500	3.765000
0.607800	0.150200	3.811000
0.613800	0.151900	3.859000
0.619900	0.153800	3.907000
0.626200	0.155700	3.956000
0.632600	0.157700	4.006000
0.639100	0.159800	4.057000
0.645800	0.162000	4.109000
0.652600	0.164300	4.161000
0.659500	0.166700	4.215000
0.666600	0.169200	4.269000
0.673800	0.171900	4.325000
0.681200	0.174600	4.382000
0.688800	0.177500	4.440000
0.696500	0.180400	4.499000
0.704500	0.183500	4.559000
0.712600	0.186800	4.620000
0.720800	0.190100	4.683000
0.729300	0.193700	4.747000
0.738000	0.197300	4.812000
0.746900	0.201100	4.879000
0.756000	0.205100	4.947000
0.765300	0.209300	5.017000
0.774900	0.213600	5.088000
0.784700	0.218100	5.161000
0.794800	0.222800	5.236000
0.805100	0.227800	5.313000
0.815700	0.232900	5.391000
0.826600	0.238300	5.471000
0.837700	0.243800	5.554000
0.849200	0.249700	5.638000
0.861000	0.255800	5.725000
0.873100	0.262200	5.814000
0.885600	0.268900	5.905000
0.898400	0.275900	5.999000
0.911700	0.283200	6.095000
0.925300	0.290800	6.194000
0.939300	0.298900	6.296000
0.953700	0.307300	6.400000
0.968600	0.316100	6.508000
0.984000	0.325400	6.619000
0.999900	0.335100	6.734000
1.016000	0.345400	6.852000
1.033000	0.356100	6.974000
1.051000	0.367500	7.100000
1.069000	0.379400	7.229000
1.088000	0.392000	7.364000
1.107000	0.405200	7.502000
1.127000	0.419200	7.646000
1.148000	0.434000	7.795000
1.170000	0.449700	7.949000
1.192000	0.466200	8.108000
1.216000	0.483800	8.274000
1.240000	0.502400	8.446000
1.265000	0.522200	8.625000
1.292000	0.543200	8.811000
1.319000	0.565600	9.004000
1.348000	0.589400	9.206000
1.378000	0.614900	9.416000
1.409000	0.642100	9.636000
1.442000	0.671200	9.865000
1.476000	0.702400	10.100000
1.512000	0.735900	10.360000
1.550000	0.771900	10.620000
1.590000	0.810600	10.900000
1.631000	0.852400	11.190000
1.675000	0.897700	11.490000
1.722000	0.946600	11.810000
1.771000	0.999800	12.150000
1.823000	1.058000	12.510000
1.879000	1.121000	12.890000
1.937000	1.190000	13.290000
2.000000	1.265000	13.720000
2.066000	1.348000	14.170000
2.138000	1.439000	14.650000
2.214000	1.541000	15.170000
2.296000	1.653000	15.720000
2.384000	1.778000	16.310000
2.480000	1.917000	16.950000
