Wavelength(micron)	n	k
0.190746472	1.652206318	0.263790099
0.191335195	1.653053206	0.262392204
0.191927564	1.653891359	0.260989365
0.192523613	1.654720734	0.259581649
0.193123375	1.655541286	0.258169119
0.193726885	1.656352969	0.25675184
0.19433418	1.65715574	0.255329878
0.194945293	1.657949556	0.2539033
0.195560263	1.658734374	0.25247217
0.196179124	1.659510152	0.251036556
0.196801915	1.660276848	0.249596525
0.197428673	1.661034419	0.248152144
0.198059435	1.661782826	0.24670348
0.198694241	1.662522028	0.245250601
0.19933313	1.663251984	0.243793575
0.19997614	1.663972655	0.242332472
0.200623312	1.664684002	0.240867359
0.201274686	1.665385987	0.239398307
0.201930304	1.666078571	0.237925384
0.202590207	1.666761716	0.23644866
0.203254437	1.667435385	0.234968205
0.203923037	1.668099542	0.233484089
0.20459605	1.66875415	0.231996384
0.205273521	1.669399173	0.23050516
0.205955493	1.670034575	0.229010488
0.206642011	1.670660322	0.22751244
0.207333121	1.671276379	0.226011087
0.20802887	1.671882712	0.224506502
0.208729304	1.672479287	0.222998756
0.209434471	1.673066071	0.221487923
0.210144418	1.673643031	0.219974075
0.210859195	1.674210135	0.218457285
0.211578851	1.674767351	0.216937627
0.212303436	1.675314647	0.215415173
0.213033001	1.675851992	0.213889999
0.213767598	1.676379355	0.212362178
0.214507278	1.676896706	0.210831785
0.215252095	1.677404015	0.209298893
0.216002102	1.677901253	0.207763578
0.216757354	1.67838839	0.206225916
0.217517906	1.678865398	0.204685981
0.218283814	1.679332248	0.203143849
0.219055135	1.679788912	0.201599596
0.219831927	1.680235364	0.200053299
0.220614247	1.680671574	0.198505032
0.221402155	1.681097518	0.196954874
0.222195711	1.681513167	0.195402901
0.222994976	1.681918497	0.19384919
0.223800012	1.682313481	0.192293819
0.224610882	1.682698094	0.190736865
0.225427648	1.683072311	0.189178406
0.226250377	1.683436106	0.18761852
0.227079133	1.683789457	0.186057287
0.227913983	1.684132338	0.184494784
0.228754994	1.684464725	0.18293109
0.229602234	1.684786596	0.181366285
0.230455774	1.685097927	0.179800449
0.231315684	1.685398695	0.178233661
0.232182035	1.685688879	0.176666001
0.2330549	1.685968454	0.17509755
0.233934352	1.686237401	0.173528389
0.234820467	1.686495696	0.171958598
0.235713321	1.686743318	0.17038826
0.23661299	1.686980247	0.168817455
0.237519553	1.687206462	0.167246266
0.23843309	1.687421942	0.165674774
0.239353681	1.687626666	0.164103064
0.240281408	1.687820614	0.162531217
0.241216355	1.688003768	0.160959317
0.242158607	1.688176106	0.159387449
0.243108248	1.68833761	0.157815695
0.244065367	1.688488261	0.156244141
0.245030053	1.688628039	0.154672872
0.246002394	1.688756926	0.153101973
0.246982483	1.688874904	0.151531529
0.247970413	1.688981954	0.149961628
0.248966278	1.689078058	0.148392355
0.249970175	1.689163198	0.146823798
0.2509822	1.689237357	0.145256044
0.252002452	1.689300517	0.143689181
0.253031034	1.68935266	0.142123299
0.254068046	1.689393771	0.140558486
0.255113594	1.689423831	0.138994832
0.256167782	1.689442824	0.137432426
0.257230719	1.689450734	0.135871361
0.258302514	1.689447544	0.134311727
0.259383277	1.689433237	0.132753616
0.260473123	1.689407799	0.131197121
0.261572166	1.689371212	0.129642335
0.262680522	1.689323461	0.128089351
0.263798312	1.68926453	0.126538266
0.264925655	1.689194405	0.124989173
0.266062675	1.689113069	0.12344217
0.267209497	1.689020508	0.121897352
0.268366248	1.688916706	0.120354818
0.269533058	1.688801649	0.118814666
0.270710058	1.688675322	0.117276995
0.271897383	1.688537711	0.115741905
0.273095169	1.688388801	0.114209498
0.274303554	1.688228577	0.112679875
0.275522681	1.688057027	0.111153139
0.276752693	1.687874136	0.109629395
0.277993737	1.68767989	0.108108746
0.279245961	1.687474276	0.106591299
0.280509517	1.687257281	0.105077162
0.28178456	1.68702889	0.103566442
0.283071248	1.686789092	0.102059248
0.28436974	1.686537874	0.100555692
0.2856802	1.686275222	9.91E-02
0.287002793	1.686001125	9.76E-02
0.28833769	1.685715571	9.61E-02
0.289685062	1.685418547	9.46E-02
0.291045086	1.685110042	9.31E-02
0.29241794	1.684790044	9.16E-02
0.293803807	1.684458542	9.01E-02
0.295202873	1.684115527	8.87E-02
0.296615327	1.683760986	8.72E-02
0.298041362	1.68339491	8.57E-02
0.299481175	1.683017289	8.43E-02
0.300934967	1.682628113	8.28E-02
0.302402943	1.682227374	8.14E-02
0.30388531	1.681815063	8.00E-02
0.305382282	1.681391171	7.85E-02
0.306894076	1.680955691	7.71E-02
0.308420912	1.680508616	7.57E-02
0.309963017	1.680049938	7.42E-02
0.31152062	1.679579652	7.28E-02
0.313093956	1.679097753	7.14E-02
0.314683265	1.678604235	7.00E-02
0.316288792	1.678099094	6.86E-02
0.317910786	1.677582326	6.73E-02
0.319549502	1.677053931	6.59E-02
0.321205198	1.676513904	6.45E-02
0.322878142	1.675962246	0.06313704
0.324568604	1.675398956	6.18E-02
0.326276859	1.674824036	6.04E-02
0.328003192	1.674237489	5.91E-02
0.32974789	1.673639316	5.78E-02
0.331511248	1.673029523	5.64E-02
0.333293566	1.672408116	5.51E-02
0.335095153	1.671775102	5.38E-02
0.336916322	1.67113049	5.25E-02
0.338757395	1.670474291	5.12E-02
0.340618699	1.669806517	4.99E-02
0.342500571	1.669127181	4.86E-02
0.344403352	1.6684363	4.74E-02
0.346327393	1.667733892	4.61E-02
0.348273052	1.667019977	4.49E-02
0.350240697	1.666294578	0.043629945
0.352230701	1.66555772	4.24E-02
0.354243447	1.664809431	4.12E-02
0.356279329	1.664049742	4.00E-02
0.358338747	1.663278686	3.88E-02
0.360422112	1.662496301	0.037599948
0.362529844	1.661702627	0.036426879
0.364662372	1.660897709	3.53E-02
0.366820138	1.660081595	3.41E-02
0.369003591	1.659254338	3.30E-02
0.371213193	1.658415995	3.19E-02
0.373449417	1.657566627	3.07E-02
0.375712747	1.656706302	2.96E-02
0.378003679	1.655835092	2.86E-02
0.38032272	1.654953077	2.75E-02
0.382670391	1.654060341	2.64E-02
0.385047225	1.653156975	2.54E-02
0.387453771	1.652243079	2.43E-02
0.389890587	1.651318759	2.33E-02
0.392358249	1.65038413	0.022328383
0.394857346	1.649439316	2.13E-02
0.397388483	1.648484451	2.04E-02
0.399952279	1.647519678	1.94E-02
0.402549372	1.646545151	1.85E-02
0.405180414	1.645561037	1.76E-02
0.407846074	1.644567516	1.67E-02
0.410547042	1.64356478	1.58E-02
0.413284022	1.642553037	1.49E-02
0.41605774	1.64153251	1.41E-02
0.418868941	1.640503441	1.32E-02
0.42171839	1.639466087	0.012420692
0.424606872	1.63842073	1.16E-02
0.427535195	1.63736767	1.09E-02
0.43050419	1.636307233	1.01E-02
0.433514708	1.635239768	9.39E-03
0.436567629	1.634165657	8.68E-03
0.439663853	1.633085307	8.00E-03
0.442804309	1.631999164	7.34E-03
0.445989952	1.630907708	6.70E-03
0.449221763	1.62981146	6.09E-03
0.452500754	1.628710987	5.50E-03
0.455827965	1.627606906	4.94E-03
0.459204469	1.626499891	4.41E-03
0.462631368	1.625390675	3.90E-03
0.466109799	1.624280067	3.42E-03
0.469640934	1.623168951	2.96E-03
0.473225979	1.622058304	2.54E-03
0.476866179	1.620949211	2.14E-03
0.480562816	1.619842875	1.78E-03
0.484317213	1.618740649	1.45E-03
0.488130735	1.617644055	1.15E-03
0.492004788	1.61655483	8.79E-04
0.495940826	1.615474977	6.44E-04
0.499940349	1.614406842	4.45E-04
0.504004905	1.613353239	2.81E-04
0.508136093	1.612317657	1.54E-04
0.512335564	1.61130466	6.37E-05
0.516605028	1.610320891	1.25E-05
0.520946246	1.609380341	0
0.525361045	1.608496115	0
0.52985131	1.607650317	0
0.534418994	1.606835492	0
0.539066116	1.6060475	0
0.543794766	1.605283505	0
0.548607109	1.604541376	0
0.553505387	1.603819423	0
0.558491922	1.603116261	0
0.563569121	1.602430723	0
0.56873948	1.601761807	0
0.574005586	1.601108642	0
0.579370124	1.600470457	0
0.58483588	1.599846567	0
0.590405746	1.599236357	0
0.596082724	1.59863927	0
0.601869935	1.5980548	0
0.607770621	1.597482482	0
0.613788151	1.596921891	0
0.619926033	1.596372632	0
0.626187912	1.595834342	0
0.632577585	1.595306681	0
0.639099003	1.594789333	0
0.645756284	1.594282003	0
0.652553719	1.593784414	0
0.65949578	1.593296305	0
0.666587132	1.592817432	0
0.673832645	1.592347563	0
0.681237399	1.591886479	0
0.688806703	1.591433974	0
0.696546104	1.590989852	0
0.704461401	1.590553927	0
0.712558659	1.590126021	0
0.720844224	1.589705967	0
0.729324745	1.589293604	0
0.738007182	1.588888779	0
0.746898835	1.588491345	0
0.756007357	1.588101164	0
0.765340781	1.587718101	0
0.774907541	1.587342028	0
0.784716497	1.586972823	0
0.794776965	1.586610368	0
0.805098744	1.58625455	0
0.815692149	1.585905262	0
0.826568044	1.585562398	0
0.837737882	1.585225858	0
0.849213744	1.584895547	0
0.861008379	1.584571372	0
0.873135258	1.584253243	0
0.885608619	1.583941074	0
0.898443526	1.583634782	0
0.911655931	1.583334288	0
0.925262736	1.583039515	0
0.939281868	1.582750387	0
0.953732358	1.582466834	0
0.968634427	1.582188785	0
0.984009576	1.581916175	0
0.999880698	1.581648937	0
1.016272185	1.58138701	0
1.033210055	1.581130333	0
1.05072209	1.580878848	0
1.068837988	1.580632499	0
1.087589532	1.58039123	0
1.107010773	1.580154989	0
1.127138242	1.579923725	0
1.148011172	1.579697388	0
1.16967176	1.579475931	0
1.192165448	1.579259306	0
1.215541241	1.579047471	0
1.239852066	1.57884038	0
1.265155169	1.578637993	0
1.291512569	1.578440269	0
1.31899156	1.578247168	0
1.347665289	1.578058652	0
1.377613407	1.577874685	0
1.408922802	1.577695232	0
1.441688449	1.577520258	0
1.476014364	1.577349729	0
1.512014715	1.577183615	0
1.549815083	1.577021883	0
1.589553931	1.576864504	0
1.631384297	1.576711448	0
1.675475765	1.576562689	0
1.722016758	1.576418199	0
1.771217237	1.576277952	0
1.823311862	1.576141923	0
1.878563736	1.576010087	0
1.937268853	1.575882423	0
1.999761397	1.575758906	0
2.06642011	1.575639516	0
2.137675976	1.575524232	0
2.214021546	1.575413034	0
2.296022344	1.575305903	0
2.384330896	1.57520282	0
2.479704132	1.575103769	0
