{ Units, Wavelength Units } SI Nanometers
{ Thickness } 1.000
{ Conductivity } 1.000
{ Emissivity, front back } Emis= 0.025 0.840
{ Type: Coated }
{ Coated Side: Front }

300 0.359 0.0479 0.0479
305 0.424 0.0595 0.0595
310 0.491 0.0734 0.0734
315 0.549 0.0854 0.0854
320 0.601 0.0937 0.0937
325 0.646 0.098 0.098
330 0.684 0.098 0.098
335 0.713 0.0967 0.0967
340 0.738 0.0947 0.0947
345 0.757 0.0918 0.0918
350 0.772 0.0886 0.0886
355 0.784 0.085 0.085
360 0.796 0.0815 0.0815
365 0.804 0.0783 0.0783
370 0.812 0.0755 0.0755
375 0.827 0.073 0.073
380 0.836 0.0709 0.0709
385 0.845 0.0689 0.0689
390 0.852 0.067 0.067
395 0.857 0.0652 0.0652
400 0.861 0.0634 0.0634
405 0.865 0.0617 0.0617
410 0.867 0.0602 0.0602
415 0.87 0.0589 0.0589
420 0.872 0.0578 0.0578
425 0.873 0.057 0.057
430 0.874 0.0562 0.0562
435 0.876 0.0558 0.0558
440 0.876 0.0557 0.0557
445 0.875 0.0558 0.0558
450 0.874 0.0561 0.0561
455 0.876 0.0567 0.0567
460 0.875 0.0575 0.0575
465 0.874 0.0586 0.0586
470 0.873 0.0599 0.0599
475 0.87 0.0614 0.0614
480 0.868 0.0633 0.0633
485 0.865 0.0656 0.0656
490 0.864 0.0675 0.0675
495 0.861 0.0699 0.0699
500 0.857 0.0725 0.0725
505 0.856 0.0754 0.0754
510 0.852 0.0783 0.0783
515 0.847 0.0815 0.0815
520 0.845 0.0848 0.0848
525 0.841 0.0883 0.0883
530 0.835 0.092 0.092
535 0.832 0.0958 0.0958
540 0.829 0.0998 0.0998
545 0.823 0.104 0.104
550 0.818 0.108 0.108
555 0.814 0.113 0.113
560 0.807 0.117 0.117
565 0.803 0.122 0.122
570 0.797 0.126 0.126
575 0.791 0.131 0.131
580 0.788 0.136 0.136
585 0.783 0.141 0.141
590 0.776 0.146 0.146
595 0.77 0.151 0.151
600 0.765 0.156 0.156
605 0.759 0.161 0.161
610 0.756 0.167 0.167
615 0.75 0.172 0.172
620 0.744 0.177 0.177
625 0.739 0.183 0.183
630 0.734 0.188 0.188
635 0.728 0.194 0.194
640 0.722 0.199 0.199
645 0.716 0.205 0.205
650 0.709 0.21 0.21
655 0.704 0.216 0.216
660 0.699 0.221 0.221
665 0.693 0.227 0.227
670 0.688 0.232 0.232
675 0.683 0.238 0.238
680 0.676 0.243 0.243
685 0.67 0.249 0.249
690 0.666 0.255 0.255
695 0.661 0.26 0.26
700 0.655 0.266 0.266
705 0.649 0.271 0.271
710 0.644 0.277 0.277
715 0.638 0.282 0.282
720 0.632 0.288 0.288
725 0.627 0.293 0.293
730 0.621 0.298 0.298
735 0.614 0.304 0.304
740 0.609 0.309 0.309
745 0.605 0.314 0.314
750 0.598 0.32 0.32
755 0.592 0.325 0.325
760 0.588 0.33 0.33
765 0.584 0.336 0.336
770 0.577 0.341 0.341
775 0.572 0.346 0.346
780 0.566 0.351 0.351
785 0.562 0.356 0.356
790 0.557 0.361 0.361
795 0.552 0.366 0.366
800 0.546 0.371 0.371
805 0.542 0.376 0.376
810 0.54 0.38 0.38
815 0.536 0.385 0.385
820 0.53 0.39 0.39
825 0.527 0.395 0.395
830 0.522 0.399 0.399
835 0.517 0.404 0.404
840 0.512 0.408 0.408
845 0.507 0.413 0.413
850 0.504 0.417 0.417
855 0.497 0.422 0.422
860 0.494 0.426 0.426
865 0.491 0.431 0.431
870 0.486 0.435 0.435
875 0.481 0.439 0.439
880 0.478 0.444 0.444
885 0.472 0.447 0.447
890 0.469 0.452 0.452
895 0.465 0.456 0.456
900 0.466 0.457 0.457
905 0.462 0.462 0.462
910 0.458 0.466 0.466
915 0.454 0.471 0.471
920 0.45 0.474 0.474
925 0.446 0.478 0.478
930 0.442 0.483 0.483
935 0.438 0.487 0.487
940 0.434 0.491 0.491
945 0.43 0.495 0.495
950 0.427 0.498 0.498
955 0.423 0.502 0.502
960 0.419 0.506 0.506
965 0.416 0.51 0.51
970 0.412 0.514 0.514
975 0.408 0.517 0.517
980 0.404 0.521 0.521
985 0.401 0.524 0.524
990 0.398 0.528 0.528
995 0.394 0.531 0.531
1000 0.391 0.535 0.535
1005 0.387 0.538 0.538
1010 0.384 0.541 0.541
1015 0.381 0.544 0.544
1020 0.378 0.548 0.548
1025 0.375 0.551 0.551
1030 0.371 0.554 0.554
1035 0.368 0.558 0.558
1040 0.365 0.56 0.56
1045 0.362 0.563 0.563
1050 0.359 0.566 0.566
1055 0.356 0.569 0.569
1060 0.353 0.572 0.572
1065 0.35 0.575 0.575
1070 0.347 0.578 0.578
1075 0.344 0.581 0.581
1080 0.341 0.584 0.584
1085 0.339 0.587 0.587
1090 0.336 0.589 0.589
1095 0.333 0.592 0.592
1100 0.33 0.595 0.595
1105 0.328 0.597 0.597
1110 0.325 0.6 0.6
1115 0.323 0.603 0.603
1120 0.32 0.605 0.605
1125 0.317 0.607 0.607
1130 0.315 0.61 0.61
1135 0.312 0.612 0.612
1140 0.31 0.615 0.615
1145 0.307 0.618 0.618
1150 0.305 0.619 0.619
1155 0.302 0.622 0.622
1160 0.3 0.624 0.624
1165 0.298 0.627 0.627
1170 0.296 0.629 0.629
1175 0.293 0.631 0.631
1180 0.291 0.633 0.633
1185 0.29 0.636 0.636
1190 0.289 0.638 0.638
1195 0.287 0.64 0.64
1200 0.285 0.642 0.642
1205 0.283 0.644 0.644
1210 0.281 0.646 0.646
1215 0.279 0.648 0.648
1220 0.277 0.65 0.65
1225 0.274 0.652 0.652
1230 0.272 0.654 0.654
1235 0.27 0.656 0.656
1240 0.268 0.659 0.659
1245 0.266 0.66 0.66
1250 0.265 0.662 0.662
1255 0.263 0.664 0.664
1260 0.261 0.666 0.666
1265 0.259 0.667 0.667
1270 0.257 0.669 0.669
1275 0.255 0.671 0.671
1280 0.253 0.673 0.673
1285 0.251 0.675 0.675
1290 0.249 0.676 0.676
1295 0.248 0.678 0.678
1300 0.246 0.679 0.679
1305 0.244 0.681 0.681
1310 0.242 0.682 0.682
1315 0.241 0.684 0.684
1320 0.239 0.686 0.686
1325 0.237 0.688 0.688
1330 0.235 0.689 0.689
1335 0.234 0.691 0.691
1340 0.233 0.692 0.692
1345 0.231 0.694 0.694
1350 0.229 0.695 0.695
1355 0.228 0.696 0.696
1360 0.226 0.698 0.698
1365 0.224 0.699 0.699
1370 0.223 0.701 0.701
1375 0.221 0.702 0.702
1380 0.219 0.704 0.704
1385 0.218 0.705 0.705
1390 0.216 0.707 0.707
1395 0.215 0.708 0.708
1400 0.213 0.71 0.71
1405 0.212 0.711 0.711
1410 0.21 0.712 0.712
1415 0.209 0.714 0.714
1420 0.207 0.715 0.715
1425 0.206 0.716 0.716
1430 0.205 0.717 0.717
1435 0.203 0.719 0.719
1440 0.202 0.72 0.72
1445 0.201 0.721 0.721
1450 0.2 0.722 0.722
1455 0.198 0.724 0.724
1460 0.197 0.725 0.725
1465 0.196 0.726 0.726
1470 0.195 0.727 0.727
1475 0.194 0.728 0.728
1480 0.192 0.729 0.729
1485 0.191 0.731 0.731
1490 0.19 0.732 0.732
1495 0.189 0.733 0.733
1500 0.188 0.734 0.734
1505 0.186 0.735 0.735
1510 0.185 0.736 0.736
1515 0.184 0.737 0.737
1520 0.183 0.738 0.738
1525 0.182 0.739 0.739
1530 0.181 0.741 0.741
1535 0.179 0.742 0.742
1540 0.178 0.743 0.743
1545 0.177 0.744 0.744
1550 0.176 0.745 0.745
1555 0.175 0.746 0.746
1560 0.174 0.747 0.747
1565 0.173 0.748 0.748
1570 0.172 0.749 0.749
1575 0.171 0.75 0.75
1580 0.17 0.75 0.75
1585 0.169 0.751 0.751
1590 0.168 0.752 0.752
1595 0.167 0.753 0.753
1600 0.166 0.754 0.754
1605 0.165 0.755 0.755
1610 0.164 0.756 0.756
1615 0.163 0.757 0.757
1620 0.162 0.758 0.758
1625 0.161 0.759 0.759
1630 0.16 0.759 0.759
1635 0.159 0.76 0.76
1640 0.158 0.761 0.761
1645 0.157 0.762 0.762
1650 0.156 0.763 0.763
1655 0.155 0.764 0.764
1660 0.155 0.764 0.764
1665 0.15 0.765 0.765
1670 0.148 0.766 0.766
1675 0.147 0.767 0.767
1680 0.147 0.768 0.768
1685 0.146 0.768 0.768
1690 0.145 0.77 0.77
1695 0.144 0.771 0.771
1700 0.143 0.771 0.771
1705 0.142 0.772 0.772
1710 0.142 0.773 0.773
1715 0.141 0.774 0.774
1720 0.14 0.775 0.775
1725 0.139 0.776 0.776
1730 0.138 0.776 0.776
1735 0.138 0.777 0.777
1740 0.137 0.778 0.778
1745 0.136 0.778 0.778
1750 0.135 0.778 0.778
1755 0.135 0.78 0.78
1760 0.134 0.78 0.78
1765 0.133 0.781 0.781
1770 0.133 0.782 0.782
1775 0.132 0.782 0.782
1780 0.131 0.783 0.783
1785 0.131 0.784 0.784
1790 0.13 0.784 0.784
1795 0.129 0.785 0.785
1800 0.128 0.786 0.786
1805 0.128 0.787 0.787
1810 0.127 0.787 0.787
1815 0.126 0.788 0.788
1820 0.126 0.789 0.789
1825 0.125 0.789 0.789
1830 0.124 0.789 0.789
1835 0.124 0.79 0.79
1840 0.123 0.791 0.791
1845 0.122 0.79 0.79
1850 0.122 0.791 0.791
1855 0.121 0.792 0.792
1860 0.12 0.793 0.793
1865 0.12 0.794 0.794
1870 0.119 0.794 0.794
1875 0.119 0.795 0.795
1880 0.118 0.795 0.795
1885 0.118 0.796 0.796
1890 0.117 0.796 0.796
1895 0.116 0.797 0.797
1900 0.116 0.798 0.798
1905 0.115 0.798 0.798
1910 0.114 0.799 0.799
1915 0.114 0.799 0.799
1920 0.113 0.8 0.8
1925 0.113 0.8 0.8
1930 0.112 0.801 0.801
1935 0.112 0.801 0.801
1940 0.111 0.802 0.802
1945 0.11 0.803 0.803
1950 0.11 0.803 0.803
1955 0.109 0.804 0.804
1960 0.109 0.804 0.804
1965 0.108 0.805 0.805
1970 0.108 0.805 0.805
1975 0.107 0.805 0.805
1980 0.107 0.806 0.806
1985 0.106 0.807 0.807
1990 0.106 0.808 0.808
1995 0.105 0.808 0.808
2000 0.109 0.808 0.808
2005 0.108 0.809 0.809
2010 0.108 0.81 0.81
2015 0.107 0.811 0.811
2020 0.106 0.812 0.812
2025 0.106 0.812 0.812
2030 0.106 0.812 0.812
2035 0.105 0.813 0.813
2040 0.105 0.813 0.813
2045 0.104 0.813 0.813
2050 0.104 0.814 0.814
2055 0.104 0.814 0.814
2060 0.103 0.815 0.815
2065 0.102 0.815 0.815
2070 0.102 0.816 0.816
2075 0.101 0.817 0.817
2080 0.101 0.816 0.816
2085 0.1 0.817 0.817
2090 0.0999 0.818 0.818
2095 0.0988 0.819 0.819
2100 0.0985 0.818 0.818
2105 0.0981 0.818 0.818
2110 0.0978 0.819 0.819
2115 0.0978 0.818 0.818
2120 0.097 0.818 0.818
2125 0.0962 0.818 0.818
2130 0.0955 0.82 0.82
2135 0.0949 0.82 0.82
2140 0.0948 0.821 0.821
2145 0.0945 0.821 0.821
2150 0.0938 0.821 0.821
2155 0.0931 0.821 0.821
2160 0.0926 0.822 0.822
2165 0.092 0.823 0.823
2170 0.0916 0.824 0.824
2175 0.0912 0.823 0.823
2180 0.0904 0.823 0.823
2185 0.0897 0.824 0.824
2190 0.0894 0.825 0.825
2195 0.0887 0.822 0.822
2200 0.0882 0.826 0.826
2205 0.0878 0.827 0.827
2210 0.0874 0.826 0.826
2215 0.0869 0.826 0.826
2220 0.0863 0.827 0.827
2225 0.086 0.828 0.828
2230 0.0859 0.828 0.828
2235 0.0856 0.828 0.828
2240 0.0852 0.828 0.828
2245 0.0847 0.828 0.828
2250 0.0845 0.829 0.829
2255 0.0845 0.828 0.828
2260 0.0845 0.83 0.83
2265 0.0841 0.829 0.829
2270 0.0829 0.827 0.827
2275 0.0827 0.828 0.828
2280 0.0828 0.831 0.831
2285 0.0826 0.833 0.833
2290 0.0818 0.835 0.835
2295 0.0816 0.834 0.834
2300 0.0817 0.837 0.837
2305 0.0812 0.832 0.832
2310 0.0808 0.835 0.835
2315 0.0799 0.836 0.836
2320 0.0804 0.835 0.835
2325 0.0801 0.833 0.833
2330 0.0796 0.838 0.838
2335 0.0784 0.833 0.833
2340 0.0787 0.837 0.837
2345 0.0786 0.832 0.832
2350 0.0784 0.836 0.836
2355 0.0779 0.836 0.836
2360 0.0766 0.839 0.839
2365 0.0768 0.837 0.837
2370 0.0766 0.837 0.837
2375 0.0764 0.835 0.835
2380 0.0759 0.839 0.839
2385 0.0755 0.835 0.835
2390 0.0758 0.835 0.835
2395 0.0752 0.842 0.842
2400 0.0736 0.835 0.835
2405 0.0736 0.835 0.835
2410 0.0737 0.841 0.841
2415 0.0731 0.835 0.835
2420 0.0735 0.838 0.838
2425 0.0722 0.834 0.834
2430 0.0714 0.842 0.842
2435 0.0711 0.836 0.836
2440 0.0707 0.837 0.837
2445 0.0714 0.842 0.842
2450 0.0711 0.836 0.836
2455 0.07 0.848 0.848
2460 0.0694 0.843 0.843
2465 0.0688 0.838 0.838
2470 0.0699 0.849 0.849
2475 0.0685 0.841 0.841
2480 0.0682 0.843 0.843
2485 0.0679 0.843 0.843
2490 0.0679 0.844 0.844
2495 0.0675 0.846 0.846
2500 0.0665 0.849 0.849
