# Wavelength (nm) T fR bR
230 0.0005 0.0479 0.0400
235 0.0006 0.0668 0.0400
240 0.0007 0.0875 0.0400
245 0.0009 0.1069 0.0400
250 0.0016 0.1221 0.0401
255 0.0035 0.1306 0.0403
260 0.0068 0.1320 0.0408
265 0.0111 0.1282 0.0420
270 0.0155 0.1236 0.0436
275 0.0200 0.1207 0.0461
280 0.0246 0.1161 0.0490
285 0.0305 0.1053 0.0520
290 0.0390 0.0858 0.0536
295 0.0515 0.0587 0.0525
300 0.0690 0.0294 0.0480
305 0.0906 0.0103 0.0434
310 0.1128 0.0179 0.0471
315 0.1305 0.0586 0.0680
320 0.1406 0.1245 0.1079
325 0.1446 0.2024 0.1632
330 0.1429 0.2771 0.2245
335 0.1396 0.3458 0.2885
340 0.1343 0.4061 0.3470
345 0.1298 0.4565 0.4042
350 0.1250 0.4981 0.4504
355 0.1209 0.5328 0.4903
360 0.1179 0.5616 0.5275
365 0.1152 0.5846 0.5535
370 0.1137 0.6035 0.5773
375 0.1129 0.6192 0.5962
380 0.1129 0.6308 0.6105
385 0.1137 0.6401 0.6216
390 0.1152 0.6472 0.6294
395 0.1178 0.6517 0.6361
400 0.1209 0.6541 0.6383
405 0.1251 0.6542 0.6408
410 0.1304 0.6527 0.6431
415 0.1360 0.6491 0.6372
420 0.1430 0.6438 0.6332
425 0.1506 0.6361 0.6247
430 0.1596 0.6261 0.6164
435 0.1691 0.6139 0.6024
440 0.1805 0.5994 0.5909
445 0.1927 0.5825 0.5747
450 0.2063 0.5630 0.5583
455 0.2204 0.5411 0.5374
460 0.2354 0.5168 0.5142
465 0.2510 0.4903 0.4891
470 0.2671 0.4622 0.4632
475 0.2823 0.4327 0.4336
480 0.2983 0.4028 0.4077
485 0.3124 0.3731 0.3795
490 0.3242 0.3447 0.3514
495 0.3349 0.3184 0.3274
500 0.3425 0.2951 0.3051
505 0.3476 0.2756 0.2869
510 0.3506 0.2603 0.2737
515 0.3500 0.2494 0.2636
520 0.3458 0.2428 0.2563
525 0.3412 0.2406 0.2552
530 0.3342 0.2421 0.2568
535 0.3261 0.2469 0.2619
540 0.3167 0.2544 0.2691
545 0.3070 0.2639 0.2786
550 0.2956 0.2749 0.2875
555 0.2850 0.2869 0.2989
560 0.2748 0.2995 0.3113
565 0.2645 0.3124 0.3235
570 0.2544 0.3252 0.3356
575 0.2447 0.3379 0.3476
580 0.2349 0.3502 0.3579
585 0.2263 0.3621 0.3697
590 0.2177 0.3734 0.3797
595 0.2094 0.3841 0.3891
600 0.2023 0.3943 0.4001
605 0.1947 0.4039 0.4076
610 0.1885 0.4129 0.4184
615 0.1821 0.4213 0.4264
620 0.1754 0.4292 0.4315
625 0.1700 0.4366 0.4401
630 0.1642 0.4435 0.4449
635 0.1591 0.4499 0.4519
640 0.1543 0.4560 0.4584
645 0.1496 0.4616 0.4646
650 0.1447 0.4669 0.4679
655 0.1406 0.4719 0.4744
660 0.1361 0.4765 0.4779
665 0.1323 0.4809 0.4838
670 0.1281 0.4849 0.4859
675 0.1242 0.4887 0.4895
680 0.1206 0.4924 0.4939
685 0.1171 0.4957 0.4979
690 0.1132 0.4988 0.4971
695 0.1098 0.5019 0.5000
700 0.1067 0.5044 0.5034
705 0.1035 0.5069 0.5057
710 0.1004 0.5094 0.5072
715 0.0976 0.5112 0.5088
720 0.0950 0.5130 0.5116
725 0.0922 0.5150 0.5125
730 0.0900 0.5160 0.5144
735 0.0877 0.5172 0.5146
740 0.0856 0.5186 0.5159
745 0.0839 0.5189 0.5162
750 0.0825 0.5195 0.5187
755 0.0809 0.5203 0.5195
760 0.0798 0.5201 0.5174
765 0.0789 0.5201 0.5174
770 0.0781 0.5204 0.5186
775 0.0778 0.5201 0.5183
780 0.0776 0.5198 0.5170
785 0.0775 0.5197 0.5179
790 0.0779 0.5195 0.5187
795 0.0783 0.5192 0.5175
800 0.0787 0.5191 0.5164
805 0.0794 0.5193 0.5175
810 0.0804 0.5196 0.5179
815 0.0814 0.5201 0.5193
820 0.0822 0.5206 0.5178
825 0.0833 0.5220 0.5191
830 0.0843 0.5235 0.5195
835 0.0853 0.5251 0.5210
840 0.0864 0.5275 0.5242
845 0.0872 0.5304 0.5270
850 0.0879 0.5334 0.5288
855 0.0888 0.5366 0.5328
860 0.0893 0.5410 0.5389
865 0.0900 0.5455 0.5473
870 0.0901 0.5500 0.5495
875 0.0900 0.5552 0.5533
880 0.0897 0.5608 0.5587
885 0.0894 0.5665 0.5641
890 0.0889 0.5722 0.5673
895 0.0882 0.5786 0.5733
900 0.0874 0.5850 0.5805
905 0.0868 0.5914 0.5889
910 0.0859 0.5979 0.5950
915 0.0846 0.6047 0.6014
920 0.0833 0.6113 0.6067
925 0.0821 0.6180 0.6130
930 0.0808 0.6247 0.6193
935 0.0794 0.6313 0.6257
940 0.0778 0.6379 0.6307
945 0.0765 0.6444 0.6382
950 0.0750 0.6509 0.6443
955 0.0735 0.6572 0.6504
960 0.0720 0.6635 0.6563
965 0.0705 0.6696 0.6622
970 0.0691 0.6757 0.6693
975 0.0675 0.6816 0.6737
980 0.0661 0.6874 0.6792
985 0.0646 0.6931 0.6847
990 0.0632 0.6986 0.6900
995 0.0617 0.7040 0.6952
1000 0.0603 0.7094 0.7003
1005 0.0589 0.7146 0.7053
1010 0.0576 0.7196 0.7102
1015 0.0563 0.7246 0.7149
1020 0.0550 0.7294 0.7195
1025 0.0537 0.7341 0.7241
1030 0.0525 0.7387 0.7285
1035 0.0512 0.7432 0.7328
1040 0.0501 0.7476 0.7370
1045 0.0489 0.7518 0.7411
1050 0.0478 0.7560 0.7451
1055 0.0467 0.7601 0.7490
1060 0.0456 0.7640 0.7528
1065 0.0445 0.7678 0.7550
1070 0.0435 0.7716 0.7601
1075 0.0426 0.7753 0.7637
1080 0.0416 0.7788 0.7686
1085 0.0407 0.7823 0.7719
1090 0.0398 0.7857 0.7752
1095 0.0389 0.7890 0.7784
1100 0.0380 0.7922 0.7815
1105 0.0372 0.7953 0.7830
1110 0.0363 0.7984 0.7844
1115 0.0355 0.8014 0.7873
1120 0.0348 0.8043 0.7917
1125 0.0340 0.8071 0.7944
1130 0.0333 0.8099 0.7971
1135 0.0326 0.8126 0.7997
1140 0.0319 0.8153 0.8022
1145 0.0312 0.8178 0.8047
1150 0.0306 0.8203 0.8071
1155 0.0299 0.8228 0.8079
1160 0.0293 0.8251 0.8102
1165 0.0287 0.8275 0.8141
1170 0.0282 0.8297 0.8195
1175 0.0276 0.8320 0.8200
1180 0.0270 0.8341 0.8221
1185 0.0265 0.8363 0.8242
1190 0.0259 0.8383 0.8246
1195 0.0254 0.8403 0.8265
1200 0.0250 0.8423 0.8317
1205 0.0245 0.8442 0.8336
1210 0.0240 0.8461 0.8338
1215 0.0235 0.8479 0.8339
1220 0.0230 0.8497 0.8356
1225 0.0226 0.8515 0.8373
1230 0.0222 0.8532 0.8407
1235 0.0218 0.8549 0.8423
1240 0.0214 0.8565 0.8439
1245 0.0210 0.8581 0.8454
1250 0.0206 0.8597 0.8470
1255 0.0202 0.8612 0.8485
1260 0.0199 0.8627 0.8499
1265 0.0195 0.8642 0.8497
1270 0.0191 0.8656 0.8510
1275 0.0188 0.8670 0.8524
1280 0.0185 0.8684 0.8554
1285 0.0182 0.8698 0.8585
1290 0.0179 0.8711 0.8581
1295 0.0176 0.8724 0.8593
1300 0.0173 0.8736 0.8622
1305 0.0170 0.8749 0.8635
1310 0.0167 0.8761 0.8646
1315 0.0164 0.8773 0.8658
1320 0.0162 0.8785 0.8669
1325 0.0159 0.8796 0.8680
1330 0.0156 0.8807 0.8691
1335 0.0154 0.8818 0.8702
1340 0.0151 0.8829 0.8713
1345 0.0149 0.8840 0.8723
1350 0.0146 0.8850 0.8716
1355 0.0144 0.8860 0.8725
1360 0.0142 0.8870 0.8718
1365 0.0140 0.8880 0.8745
1370 0.0137 0.8889 0.8754
1375 0.0135 0.8899 0.8763
1380 0.0133 0.8908 0.8772
1385 0.0131 0.8917 0.8781
1390 0.0129 0.8926 0.8789
1395 0.0127 0.8934 0.8780
1400 0.0125 0.8943 0.8754
1405 0.0123 0.8951 0.8762
1410 0.0122 0.8959 0.8770
1415 0.0120 0.8967 0.8777
1420 0.0118 0.8975 0.8785
1425 0.0116 0.8983 0.8793
1430 0.0115 0.8991 0.8818
1435 0.0113 0.8998 0.8807
1440 0.0112 0.9006 0.8832
1445 0.0110 0.9013 0.8857
1450 0.0109 0.9020 0.8864
1455 0.0107 0.9027 0.8871
1460 0.0106 0.9034 0.8895
1465 0.0104 0.9041 0.8902
1470 0.0103 0.9047 0.8908
1475 0.0102 0.9054 0.8915
1480 0.0100 0.9060 0.8903
1485 0.0099 0.9067 0.8909
1490 0.0098 0.9073 0.8933
1495 0.0096 0.9079 0.8939
1500 0.0095 0.9085 0.8981
1505 0.0094 0.9091 0.8987
1510 0.0093 0.9097 0.8974
1515 0.0092 0.9103 0.8998
1520 0.0091 0.9108 0.9003
1525 0.0090 0.9114 0.9009
1530 0.0088 0.9119 0.9014
1535 0.0087 0.9125 0.9019
1540 0.0086 0.9130 0.9025
1545 0.0085 0.9135 0.9030
1550 0.0084 0.9140 0.9035
1555 0.0083 0.9145 0.9040
1560 0.0082 0.9150 0.9045
1565 0.0081 0.9155 0.9049
1570 0.0080 0.9160 0.9054
1575 0.0079 0.9165 0.9041
1580 0.0078 0.9169 0.9045
1585 0.0077 0.9174 0.9050
1590 0.0077 0.9178 0.9054
1595 0.0076 0.9183 0.9040
1600 0.0075 0.9187 0.9063
1605 0.0074 0.9192 0.9049
1610 0.0073 0.9196 0.9053
1615 0.0072 0.9200 0.9057
1620 0.0071 0.9204 0.9061
1625 0.0071 0.9208 0.9047
1630 0.0070 0.9212 0.9051
1635 0.0069 0.9216 0.9073
1640 0.0068 0.9220 0.9095
1645 0.0068 0.9224 0.9081
1650 0.0067 0.9228 0.9084
1655 0.0066 0.9232 0.9106
1660 0.0066 0.9235 0.9110
1665 0.0065 0.9239 0.9095
1670 0.0064 0.9243 0.9099
1675 0.0064 0.9246 0.9120
1680 0.0063 0.9250 0.9106
1685 0.0062 0.9253 0.9109
1690 0.0062 0.9257 0.9094
1695 0.0061 0.9260 0.9116
1700 0.0060 0.9263 0.9119
1705 0.0060 0.9267 0.9104
1710 0.0059 0.9270 0.9107
1715 0.0059 0.9273 0.9110
1720 0.0058 0.9276 0.9113
1725 0.0057 0.9279 0.9135
1730 0.0057 0.9282 0.9138
1735 0.0056 0.9285 0.9140
1740 0.0056 0.9288 0.9107
1745 0.0055 0.9291 0.9128
1750 0.0055 0.9294 0.9131
1755 0.0054 0.9297 0.9152
1760 0.0054 0.9300 0.9136
1765 0.0053 0.9303 0.9139
1770 0.0053 0.9305 0.9160
1775 0.0052 0.9308 0.9144
1780 0.0052 0.9311 0.9147
1785 0.0051 0.9314 0.9150
1790 0.0051 0.9316 0.9152
1795 0.0050 0.9319 0.9137
1800 0.0050 0.9321 0.9176
1805 0.0050 0.9324 0.9252
1810 0.0049 0.9326 0.9236
1815 0.0049 0.9329 0.9275
1820 0.0048 0.9331 0.9278
1825 0.0048 0.9334 0.9280
1830 0.0047 0.9336 0.9264
1835 0.0047 0.9339 0.9266
1840 0.0047 0.9341 0.9269
1845 0.0046 0.9343 0.9234
1850 0.0046 0.9346 0.9236
1855 0.0045 0.9348 0.9275
1860 0.0045 0.9350 0.9296
1865 0.0045 0.9352 0.9243
1870 0.0044 0.9354 0.9226
1875 0.0044 0.9357 0.9265
1880 0.0043 0.9359 0.9231
1885 0.0043 0.9361 0.9214
1890 0.0043 0.9363 0.9235
1895 0.0042 0.9365 0.9237
1900 0.0042 0.9367 0.9220
1905 0.0042 0.9369 0.9222
1910 0.0041 0.9371 0.9224
1915 0.0041 0.9373 0.9208
1920 0.0041 0.9375 0.9191
1925 0.0040 0.9377 0.9193
1930 0.0040 0.9379 0.9232
1935 0.0040 0.9381 0.9215
1940 0.0039 0.9382 0.9254
1945 0.0039 0.9384 0.9256
1950 0.0039 0.9386 0.9221
1955 0.0038 0.9388 0.9241
1960 0.0038 0.9390 0.9242
1965 0.0038 0.9391 0.9244
1970 0.0038 0.9393 0.9264
1975 0.0037 0.9395 0.9303
1980 0.0037 0.9397 0.9324
1985 0.0037 0.9398 0.9307
1990 0.0037 0.9400 0.9271
1995 0.0036 0.9402 0.9236
2000 0.0036 0.9403 0.9237
2005 0.0036 0.9405 0.9257
2010 0.0035 0.9407 0.9240
2015 0.0035 0.9408 0.9261
2020 0.0035 0.9410 0.9281
2025 0.0035 0.9411 0.9301
2030 0.0034 0.9413 0.9302
2035 0.0034 0.9414 0.9322
2040 0.0034 0.9416 0.9324
2045 0.0034 0.9417 0.9251
2050 0.0033 0.9419 0.9197
2055 0.0033 0.9420 0.9254
2060 0.0033 0.9422 0.9274
2065 0.0033 0.9423 0.9220
2070 0.0032 0.9425 0.9240
2075 0.0032 0.9426 0.9278
2080 0.0032 0.9428 0.9279
2085 0.0032 0.9429 0.9281
2090 0.0032 0.9430 0.9319
2095 0.0031 0.9432 0.9302
2100 0.0031 0.9433 0.9248
2105 0.0031 0.9434 0.9193
2110 0.0031 0.9436 0.9213
2115 0.0030 0.9437 0.9214
2120 0.0030 0.9438 0.9234
2125 0.0030 0.9440 0.9254
2130 0.0030 0.9441 0.9237
2135 0.0030 0.9442 0.9201
2140 0.0029 0.9443 0.9147
2145 0.0029 0.9445 0.9129
2150 0.0029 0.9446 0.9149
2155 0.0029 0.9447 0.9150
2160 0.0029 0.9448 0.9133
2165 0.0028 0.9449 0.9097
2170 0.0028 0.9451 0.9098
2175 0.0028 0.9452 0.9081
2180 0.0028 0.9453 0.9027
2185 0.0027 0.9454 0.9010
2190 0.0027 0.9455 0.8974
2195 0.0027 0.9456 0.8975
2200 0.0027 0.9457 0.8958
2205 0.0027 0.9459 0.8941
2210 0.0026 0.9460 0.8924
2215 0.0026 0.9461 0.8852
2220 0.0026 0.9462 0.8871
2225 0.0026 0.9463 0.8909
2230 0.0026 0.9464 0.8946
2235 0.0026 0.9465 0.8965
2240 0.0025 0.9466 0.8930
2245 0.0025 0.9467 0.8931
2250 0.0025 0.9468 0.8968
2255 0.0025 0.9469 0.8987
2260 0.0025 0.9470 0.8970
2265 0.0025 0.9471 0.9008
2270 0.0025 0.9472 0.9009
2275 0.0025 0.9473 0.9009
2280 0.0024 0.9474 0.9047
2285 0.0024 0.9475 0.9030
2290 0.0024 0.9476 0.9049
2295 0.0024 0.9477 0.9050
2300 0.0024 0.9478 0.9014
2305 0.0024 0.9479 0.9015
2310 0.0024 0.9480 0.9034
2315 0.0023 0.9481 0.9017
2320 0.0023 0.9482 0.8981
2325 0.0023 0.9483 0.9018
2330 0.0023 0.9483 0.9038
2335 0.0023 0.9484 0.8983
2340 0.0023 0.9485 0.8966
2345 0.0023 0.9486 0.8949
2350 0.0022 0.9487 0.8968
2355 0.0022 0.9488 0.9005
2360 0.0022 0.9489 0.8987
2365 0.0022 0.9489 0.8970
2370 0.0022 0.9490 0.8934
2375 0.0022 0.9491 0.8917
2380 0.0022 0.9492 0.8881
2385 0.0022 0.9493 0.8882
2390 0.0021 0.9494 0.8864
2395 0.0021 0.9494 0.8845
2400 0.0021 0.9495 0.8810
2405 0.0021 0.9496 0.8774
2410 0.0021 0.9497 0.8703
2415 0.0021 0.9498 0.8758
2420 0.0021 0.9498 0.8758
2425 0.0020 0.9499 0.8759
2430 0.0020 0.9500 0.8742
2435 0.0020 0.9501 0.8688
2440 0.0020 0.9501 0.8671
2445 0.0020 0.9502 0.8618
2450 0.0020 0.9503 0.8655
2455 0.0020 0.9504 0.8584
2460 0.0020 0.9504 0.8602
2465 0.0019 0.9505 0.8585
2470 0.0019 0.9506 0.8603
2475 0.0019 0.9507 0.8551
